# GNUBANDS: Utility for SIESTA to transform bands output into Gnuplot format
#
#                                                  Emilio Artacho, Feb. 1999
#                                                   Alberto Garcia, May 2012
#                                         Nick Papior, April 2013, July 2016
# --------------------------------------------------------------------------
# E_F / orig        =      0.0000    -3.5366
# k_min, k_max      =     0.0000    2.1255
# E_min, E_max      =   -20.0000   10.0000
# Nbands, Nspin, Nk =     26     1   301
# Using min_band, max_band =      1    26
# Total number of bands =     26
#
#        k            E[eV]
# --------------------------------------------------------------------------

      0.000000    -19.377756  1
      0.008984    -19.377056  1
      0.017967    -19.374956  1
      0.026951    -19.371556  1
      0.035934    -19.366856  1
      0.044918    -19.360656  1
      0.053902    -19.353056  1
      0.062885    -19.344056  1
      0.071869    -19.333656  1
      0.080852    -19.321856  1
      0.089836    -19.308556  1
      0.098820    -19.293656  1
      0.107803    -19.277356  1
      0.116787    -19.259556  1
      0.125770    -19.240156  1
      0.134754    -19.219256  1
      0.143737    -19.196756  1
      0.152721    -19.172756  1
      0.161705    -19.147156  1
      0.170688    -19.119856  1
      0.179672    -19.091056  1
      0.188655    -19.060656  1
      0.197639    -19.028656  1
      0.206623    -18.995056  1
      0.215606    -18.959856  1
      0.224590    -18.922956  1
      0.233573    -18.884556  1
      0.242557    -18.844556  1
      0.251541    -18.802956  1
      0.260524    -18.759656  1
      0.269508    -18.714856  1
      0.278491    -18.668456  1
      0.287475    -18.620556  1
      0.296459    -18.570956  1
      0.305442    -18.519856  1
      0.314426    -18.467156  1
      0.323409    -18.412956  1
      0.332393    -18.357156  1
      0.341376    -18.299756  1
      0.350360    -18.240856  1
      0.359344    -18.180456  1
      0.368327    -18.118556  1
      0.377311    -18.055156  1
      0.386294    -17.990156  1
      0.395278    -17.923756  1
      0.404262    -17.855756  1
      0.413245    -17.786356  1
      0.422229    -17.715456  1
      0.431212    -17.643056  1
      0.440196    -17.569256  1
      0.449180    -17.493956  1
      0.458163    -17.417256  1
      0.467147    -17.339056  1
      0.476130    -17.259556  1
      0.485114    -17.178556  1
      0.494098    -17.096156  1
      0.503081    -17.012456  1
      0.512065    -16.927256  1
      0.521048    -16.840756  1
      0.530032    -16.752956  1
      0.539016    -16.663756  1
      0.547999    -16.573256  1
      0.556983    -16.481456  1
      0.565966    -16.388356  1
      0.574950    -16.293956  1
      0.583933    -16.198256  1
      0.592917    -16.101456  1
      0.601901    -16.003356  1
      0.610884    -15.904056  1
      0.619868    -15.803656  1
      0.628851    -15.702056  1
      0.637835    -15.599356  1
      0.646819    -15.495556  1
      0.655802    -15.390756  1
      0.664786    -15.284956  1
      0.673769    -15.178156  1
      0.682753    -15.070456  1
      0.691737    -14.961856  1
      0.700720    -14.852456  1
      0.709704    -14.742356  1
      0.718687    -14.631556  1
      0.727671    -14.520156  1
      0.736655    -14.408256  1
      0.745638    -14.295856  1
      0.754622    -14.183256  1
      0.763605    -14.070556  1
      0.772589    -13.957756  1
      0.781572    -13.845256  1
      0.790556    -13.733056  1
      0.799540    -13.621456  1
      0.808523    -13.510856  1
      0.817507    -13.401456  1
      0.826490    -13.293756  1
      0.835474    -13.188156  1
      0.844458    -13.085156  1
      0.853441    -12.985456  1
      0.862425    -12.889756  1
      0.871408    -12.798956  1
      0.880392    -12.713956  1
      0.889376    -12.635656  1
      0.898359    -12.565556  1
      0.902851    -12.597956  1
      0.907343    -12.630656  1
      0.911835    -12.663056  1
      0.916326    -12.695156  1
      0.920818    -12.726856  1
      0.925310    -12.758256  1
      0.929802    -12.789356  1
      0.934294    -12.820156  1
      0.938785    -12.850556  1
      0.943277    -12.880656  1
      0.947769    -12.910456  1
      0.952261    -12.939956  1
      0.956753    -12.969056  1
      0.961244    -12.997856  1
      0.965736    -13.026356  1
      0.970228    -13.054556  1
      0.974720    -13.082356  1
      0.979212    -13.109856  1
      0.983703    -13.137056  1
      0.988195    -13.163956  1
      0.992687    -13.190456  1
      0.997179    -13.216656  1
      1.001670    -13.242556  1
      1.006162    -13.268056  1
      1.010654    -13.293256  1
      1.015146    -13.318156  1
      1.019638    -13.342756  1
      1.024129    -13.366956  1
      1.028621    -13.390856  1
      1.033113    -13.414356  1
      1.037605    -13.437656  1
      1.042097    -13.460556  1
      1.046588    -13.483056  1
      1.051080    -13.505356  1
      1.055572    -13.527256  1
      1.060064    -13.548756  1
      1.064556    -13.570056  1
      1.069047    -13.590956  1
      1.073539    -13.611456  1
      1.078031    -13.631756  1
      1.082523    -13.651656  1
      1.087015    -13.671256  1
      1.091506    -13.690456  1
      1.095998    -13.709356  1
      1.100490    -13.727956  1
      1.104982    -13.746156  1
      1.109474    -13.764056  1
      1.113965    -13.781656  1
      1.118457    -13.798856  1
      1.122949    -13.815756  1
      1.127441    -13.832356  1
      1.131933    -13.848556  1
      1.136424    -13.864456  1
      1.140916    -13.879956  1
      1.145408    -13.895256  1
      1.149900    -13.910056  1
      1.154392    -13.924656  1
      1.158883    -13.938856  1
      1.163375    -13.952756  1
      1.167867    -13.966356  1
      1.172359    -13.979556  1
      1.176851    -13.992356  1
      1.181342    -14.004956  1
      1.185834    -14.017156  1
      1.190326    -14.029056  1
      1.194818    -14.040556  1
      1.199310    -14.051756  1
      1.203801    -14.062656  1
      1.208293    -14.073156  1
      1.212785    -14.083356  1
      1.217277    -14.093256  1
      1.221768    -14.102756  1
      1.226260    -14.111956  1
      1.230752    -14.120856  1
      1.235244    -14.129356  1
      1.239736    -14.137556  1
      1.244227    -14.145456  1
      1.248719    -14.152956  1
      1.253211    -14.160156  1
      1.257703    -14.166956  1
      1.262195    -14.173556  1
      1.266686    -14.179656  1
      1.271178    -14.185556  1
      1.275670    -14.191056  1
      1.280162    -14.196256  1
      1.284654    -14.201056  1
      1.289145    -14.205556  1
      1.293637    -14.209756  1
      1.298129    -14.213656  1
      1.302621    -14.217156  1
      1.307113    -14.220356  1
      1.311604    -14.223156  1
      1.316096    -14.225656  1
      1.320588    -14.227856  1
      1.325080    -14.229656  1
      1.329572    -14.231156  1
      1.334063    -14.232356  1
      1.338555    -14.233156  1
      1.343047    -14.233656  1
      1.347539    -14.233856  1
      1.355319    -14.244756  1
      1.363099    -14.275956  1
      1.370879    -14.324256  1
      1.378659    -14.385556  1
      1.386439    -14.456356  1
      1.394219    -14.533856  1
      1.401999    -14.616056  1
      1.409779    -14.701556  1
      1.417559    -14.789156  1
      1.425339    -14.878156  1
      1.433119    -14.968156  1
      1.440899    -15.058556  1
      1.448679    -15.149156  1
      1.456459    -15.239756  1
      1.464239    -15.330156  1
      1.472019    -15.420256  1
      1.479799    -15.509856  1
      1.487579    -15.598856  1
      1.495359    -15.687256  1
      1.503139    -15.775056  1
      1.510919    -15.862056  1
      1.518699    -15.948356  1
      1.526479    -16.033756  1
      1.534259    -16.118356  1
      1.542039    -16.202056  1
      1.549819    -16.284856  1
      1.557599    -16.366856  1
      1.565379    -16.447756  1
      1.573159    -16.527856  1
      1.580939    -16.606956  1
      1.588719    -16.684956  1
      1.596499    -16.762156  1
      1.604279    -16.838256  1
      1.612059    -16.913256  1
      1.619839    -16.987356  1
      1.627619    -17.060356  1
      1.635399    -17.132356  1
      1.643179    -17.203356  1
      1.650959    -17.273256  1
      1.658740    -17.342056  1
      1.666520    -17.409856  1
      1.674300    -17.476456  1
      1.682080    -17.542056  1
      1.689860    -17.606556  1
      1.697640    -17.670056  1
      1.705420    -17.732356  1
      1.713200    -17.793556  1
      1.720980    -17.853656  1
      1.728760    -17.912556  1
      1.736540    -17.970456  1
      1.744320    -18.027156  1
      1.752100    -18.082756  1
      1.759880    -18.137256  1
      1.767660    -18.190556  1
      1.775440    -18.242756  1
      1.783220    -18.293756  1
      1.791000    -18.343556  1
      1.798780    -18.392356  1
      1.806560    -18.439856  1
      1.814340    -18.486256  1
      1.822120    -18.531456  1
      1.829900    -18.575456  1
      1.837680    -18.618356  1
      1.845460    -18.660056  1
      1.853240    -18.700556  1
      1.861020    -18.739856  1
      1.868800    -18.777956  1
      1.876580    -18.814956  1
      1.884360    -18.850656  1
      1.892140    -18.885256  1
      1.899920    -18.918556  1
      1.907700    -18.950756  1
      1.915480    -18.981656  1
      1.923260    -19.011356  1
      1.931040    -19.039956  1
      1.938820    -19.067256  1
      1.946600    -19.093456  1
      1.954380    -19.118356  1
      1.962160    -19.142056  1
      1.969940    -19.164656  1
      1.977720    -19.186056  1
      1.985500    -19.206156  1
      1.993280    -19.225256  1
      2.001060    -19.243056  1
      2.008840    -19.259756  1
      2.016620    -19.275256  1
      2.024400    -19.289656  1
      2.032180    -19.302856  1
      2.039960    -19.314956  1
      2.047740    -19.326056  1
      2.055520    -19.335956  1
      2.063300    -19.344756  1
      2.071081    -19.352556  1
      2.078861    -19.359256  1
      2.086641    -19.364956  1
      2.094421    -19.369556  1
      2.102201    -19.373156  1
      2.109981    -19.375656  1
      2.117761    -19.377156  1
      2.125541    -19.377756  1


      0.000000     -7.525356  1
      0.008984     -7.524356  1
      0.017967     -7.521556  1
      0.026951     -7.516956  1
      0.035934     -7.510456  1
      0.044918     -7.502056  1
      0.053902     -7.491856  1
      0.062885     -7.479756  1
      0.071869     -7.465756  1
      0.080852     -7.449956  1
      0.089836     -7.432356  1
      0.098820     -7.412856  1
      0.107803     -7.391456  1
      0.116787     -7.368256  1
      0.125770     -7.343256  1
      0.134754     -7.316356  1
      0.143737     -7.287656  1
      0.152721     -7.257056  1
      0.161705     -7.224756  1
      0.170688     -7.190556  1
      0.179672     -7.154456  1
      0.188655     -7.116656  1
      0.197639     -7.077056  1
      0.206623     -7.035556  1
      0.215606     -6.992356  1
      0.224590     -6.947356  1
      0.233573     -6.900456  1
      0.242557     -6.851856  1
      0.251541     -6.801556  1
      0.260524     -6.749456  1
      0.269508     -6.695556  1
      0.278491     -6.639856  1
      0.287475     -6.582556  1
      0.296459     -6.523456  1
      0.305442     -6.462656  1
      0.314426     -6.400056  1
      0.323409     -6.335856  1
      0.332393     -6.269956  1
      0.341376     -6.282056  1
      0.350360     -6.405956  1
      0.359344     -6.529856  1
      0.368327     -6.653856  1
      0.377311     -6.777656  1
      0.386294     -6.901356  1
      0.395278     -7.024856  1
      0.404262     -7.148056  1
      0.413245     -7.270856  1
      0.422229     -7.393356  1
      0.431212     -7.515356  1
      0.440196     -7.636956  1
      0.449180     -7.757956  1
      0.458163     -7.878356  1
      0.467147     -7.998156  1
      0.476130     -8.117256  1
      0.485114     -8.235656  1
      0.494098     -8.353356  1
      0.503081     -8.470256  1
      0.512065     -8.586356  1
      0.521048     -8.701656  1
      0.530032     -8.816156  1
      0.539016     -8.929656  1
      0.547999     -9.042356  1
      0.556983     -9.154056  1
      0.565966     -9.264756  1
      0.574950     -9.374556  1
      0.583933     -9.483356  1
      0.592917     -9.591156  1
      0.601901     -9.697856  1
      0.610884     -9.803556  1
      0.619868     -9.908156  1
      0.628851    -10.011756  1
      0.637835    -10.114156  1
      0.646819    -10.215456  1
      0.655802    -10.315756  1
      0.664786    -10.414756  1
      0.673769    -10.512756  1
      0.682753    -10.609456  1
      0.691737    -10.705056  1
      0.700720    -10.799556  1
      0.709704    -10.892756  1
      0.718687    -10.984856  1
      0.727671    -11.075656  1
      0.736655    -11.165256  1
      0.745638    -11.253756  1
      0.754622    -11.340856  1
      0.763605    -11.426856  1
      0.772589    -11.511556  1
      0.781572    -11.595056  1
      0.790556    -11.677256  1
      0.799540    -11.758256  1
      0.808523    -11.837956  1
      0.817507    -11.916456  1
      0.826490    -11.993656  1
      0.835474    -12.069556  1
      0.844458    -12.144256  1
      0.853441    -12.217656  1
      0.862425    -12.289756  1
      0.871408    -12.360556  1
      0.880392    -12.430156  1
      0.889376    -12.498456  1
      0.898359    -12.564956  1
      0.902851    -12.533456  1
      0.907343    -12.503656  1
      0.911835    -12.476256  1
      0.916326    -12.451156  1
      0.920818    -12.428656  1
      0.925310    -12.408556  1
      0.929802    -12.390956  1
      0.934294    -12.375856  1
      0.938785    -12.363156  1
      0.943277    -12.352956  1
      0.947769    -12.344956  1
      0.952261    -12.339156  1
      0.956753    -12.335456  1
      0.961244    -12.333756  1
      0.965736    -12.333856  1
      0.970228    -12.335756  1
      0.974720    -12.339256  1
      0.979212    -12.344156  1
      0.983703    -12.350456  1
      0.988195    -12.357956  1
      0.992687    -12.366556  1
      0.997179    -12.376156  1
      1.001670    -12.386656  1
      1.006162    -12.397956  1
      1.010654    -12.409956  1
      1.015146    -12.422656  1
      1.019638    -12.435956  1
      1.024129    -12.449656  1
      1.028621    -12.463756  1
      1.033113    -12.478356  1
      1.037605    -12.493156  1
      1.042097    -12.508256  1
      1.046588    -12.523556  1
      1.051080    -12.539156  1
      1.055572    -12.554756  1
      1.060064    -12.570556  1
      1.064556    -12.586356  1
      1.069047    -12.602256  1
      1.073539    -12.618156  1
      1.078031    -12.634056  1
      1.082523    -12.649856  1
      1.087015    -12.665656  1
      1.091506    -12.681456  1
      1.095998    -12.697056  1
      1.100490    -12.712556  1
      1.104982    -12.728056  1
      1.109474    -12.743256  1
      1.113965    -12.758456  1
      1.118457    -12.773456  1
      1.122949    -12.788256  1
      1.127441    -12.802856  1
      1.131933    -12.817256  1
      1.136424    -12.831456  1
      1.140916    -12.845456  1
      1.145408    -12.859256  1
      1.149900    -12.872856  1
      1.154392    -12.886156  1
      1.158883    -12.899256  1
      1.163375    -12.912156  1
      1.167867    -12.924756  1
      1.172359    -12.937056  1
      1.176851    -12.949156  1
      1.181342    -12.960956  1
      1.185834    -12.972456  1
      1.190326    -12.983756  1
      1.194818    -12.994656  1
      1.199310    -13.005356  1
      1.203801    -13.015756  1
      1.208293    -13.025856  1
      1.212785    -13.035756  1
      1.217277    -13.045256  1
      1.221768    -13.054456  1
      1.226260    -13.063356  1
      1.230752    -13.071956  1
      1.235244    -13.080256  1
      1.239736    -13.088256  1
      1.244227    -13.095956  1
      1.248719    -13.103356  1
      1.253211    -13.110356  1
      1.257703    -13.117156  1
      1.262195    -13.123556  1
      1.266686    -13.129656  1
      1.271178    -13.135456  1
      1.275670    -13.140856  1
      1.280162    -13.145956  1
      1.284654    -13.150756  1
      1.289145    -13.155256  1
      1.293637    -13.159456  1
      1.298129    -13.163256  1
      1.302621    -13.166756  1
      1.307113    -13.169856  1
      1.311604    -13.172756  1
      1.316096    -13.175256  1
      1.320588    -13.177356  1
      1.325080    -13.179256  1
      1.329572    -13.180756  1
      1.334063    -13.181856  1
      1.338555    -13.182756  1
      1.343047    -13.183256  1
      1.347539    -13.183356  1
      1.355319    -13.171656  1
      1.363099    -13.137756  1
      1.370879    -13.085056  1
      1.378659    -13.017556  1
      1.386439    -12.938856  1
      1.394219    -12.851656  1
      1.401999    -12.757956  1
      1.409779    -12.659356  1
      1.417559    -12.556856  1
      1.425339    -12.451156  1
      1.433119    -12.342756  1
      1.440899    -12.232256  1
      1.448679    -12.119756  1
      1.456459    -12.005556  1
      1.464239    -11.889956  1
      1.472019    -11.772956  1
      1.479799    -11.654756  1
      1.487579    -11.535356  1
      1.495359    -11.414956  1
      1.503139    -11.293656  1
      1.510919    -11.171356  1
      1.518699    -11.048256  1
      1.526479    -10.924256  1
      1.534259    -10.799656  1
      1.542039    -10.674256  1
      1.549819    -10.548156  1
      1.557599    -10.421456  1
      1.565379    -10.294156  1
      1.573159    -10.166356  1
      1.580939    -10.037956  1
      1.588719     -9.909056  1
      1.596499     -9.779756  1
      1.604279     -9.649956  1
      1.612059     -9.519856  1
      1.619839     -9.389356  1
      1.627619     -9.258456  1
      1.635399     -9.127356  1
      1.643179     -8.995956  1
      1.650959     -8.864356  1
      1.658740     -8.732656  1
      1.666520     -8.600756  1
      1.674300     -8.468756  1
      1.682080     -8.336656  1
      1.689860     -8.204556  1
      1.697640     -8.072556  1
      1.705420     -7.940556  1
      1.713200     -7.808756  1
      1.720980     -7.677056  1
      1.728760     -7.545556  1
      1.736540     -7.414356  1
      1.744320     -7.283456  1
      1.752100     -7.152956  1
      1.759880     -7.022956  1
      1.767660     -6.893356  1
      1.775440     -6.764356  1
      1.783220     -6.635956  1
      1.791000     -6.508256  1
      1.798780     -6.381356  1
      1.806560     -6.368556  1
      1.814340     -6.423356  1
      1.822120     -6.477056  1
      1.829900     -6.529356  1
      1.837680     -6.580456  1
      1.845460     -6.630256  1
      1.853240     -6.678656  1
      1.861020     -6.725856  1
      1.868800     -6.771756  1
      1.876580     -6.816356  1
      1.884360     -6.859556  1
      1.892140     -6.901556  1
      1.899920     -6.942156  1
      1.907700     -6.981356  1
      1.915480     -7.019256  1
      1.923260     -7.055856  1
      1.931040     -7.091156  1
      1.938820     -7.124956  1
      1.946600     -7.157556  1
      1.954380     -7.188656  1
      1.962160     -7.218456  1
      1.969940     -7.246956  1
      1.977720     -7.273956  1
      1.985500     -7.299656  1
      1.993280     -7.323956  1
      2.001060     -7.346956  1
      2.008840     -7.368456  1
      2.016620     -7.388656  1
      2.024400     -7.407456  1
      2.032180     -7.424856  1
      2.039960     -7.440956  1
      2.047740     -7.455556  1
      2.055520     -7.468856  1
      2.063300     -7.480656  1
      2.071081     -7.491156  1
      2.078861     -7.500156  1
      2.086641     -7.507856  1
      2.094421     -7.514156  1
      2.102201     -7.519056  1
      2.109981     -7.522556  1
      2.117761     -7.524656  1
