#
#   partial DOS for atom index     0
#
#   Add data for atom_index =   1,  n,l,m,z=  2  0  0  1
#   Add data for atom_index =   1,  n,l,m,z=  2  0  0  2
#   Add data for atom_index =   2,  n,l,m,z=  2  0  0  1
#   Add data for atom_index =   2,  n,l,m,z=  2  0  0  2
#
#    Energy          spin 1        spin2
#
  -14.9999840     0.06100346
  -14.9599039     0.06027252
  -14.9198237     0.05958336
  -14.8797436     0.05867943
  -14.8396635     0.05779096
  -14.7995834     0.05715694
  -14.7595033     0.05652214
  -14.7194231     0.05564891
  -14.6793430     0.05481702
  -14.6392629     0.05425586
  -14.5991828     0.05366269
  -14.5591027     0.05283138
  -14.5190226     0.05205625
  -14.4789424     0.05151728
  -14.4388623     0.05096177
  -14.3987822     0.05021421
  -14.3587021     0.04947311
  -14.3186220     0.04892171
  -14.2785419     0.04840314
  -14.2384617     0.04774319
  -14.1983816     0.04706550
  -14.1583015     0.04649476
  -14.1182214     0.04596127
  -14.0781413     0.04545253
  -14.0380611     0.04499843
  -13.9979810     0.04453445
  -13.9579009     0.04412112
  -13.9178208     0.04391009
  -13.8777407     0.04377014
  -13.8376606     0.04344317
  -13.7975804     0.04300972
  -13.7575003     0.04276328
  -13.7174202     0.04271733
  -13.6773401     0.04253899
  -13.6372600     0.04205938
  -13.5971799     0.04162697
  -13.5570997     0.04157099
  -13.5170196     0.04156434
  -13.4769395     0.04116931
  -13.4368594     0.04065061
  -13.3967793     0.04045177
  -13.3566992     0.04039762
  -13.3166190     0.04015415
  -13.2765389     0.03981735
  -13.2364588     0.03953573
  -13.1963787     0.03923724
  -13.1562986     0.03896018
  -13.1162184     0.03881938
  -13.0761383     0.03866868
  -13.0360582     0.03831920
  -12.9959781     0.03790435
  -12.9558980     0.03766075
  -12.9158179     0.03756247
  -12.8757377     0.03738923
  -12.8356576     0.03703003
  -12.7955775     0.03664504
  -12.7554974     0.03645613
  -12.7154173     0.03634555
  -12.6753372     0.03601953
  -12.6352570     0.03560205
  -12.5951769     0.03545243
  -12.5550968     0.03542458
  -12.5150167     0.03506437
  -12.4749366     0.03450952
  -12.4348564     0.03430662
  -12.3947763     0.03436078
  -12.3546962     0.03412367
  -12.3146161     0.03365688
  -12.2745360     0.03338510
  -12.2344559     0.03320374
  -12.1943757     0.03284472
  -12.1542956     0.03257220
  -12.1142155     0.03260847
  -12.0741354     0.03246267
  -12.0340553     0.03178985
  -11.9939752     0.03122989
  -11.9538950     0.03133836
  -11.9138149     0.03153229
  -11.8737348     0.03110854
  -11.8336547     0.03041213
  -11.7935746     0.03011384
  -11.7534945     0.03010955
  -11.7134143     0.02994131
  -11.6733342     0.02964960
  -11.6332541     0.02942262
  -11.5931740     0.02907712
  -11.5530939     0.02857687
  -11.5130137     0.02832628
  -11.4729336     0.02841608
  -11.4328535     0.02830966
  -11.3927734     0.02773048
  -11.3526933     0.02717410
  -11.3126132     0.02705786
  -11.2725330     0.02705469
  -11.2324529     0.02676750
  -11.1923728     0.02636181
  -11.1522927     0.02609044
  -11.1122126     0.02581824
  -11.0721325     0.02542364
  -11.0320523     0.02514827
  -10.9919722     0.02510259
  -10.9518921     0.02492642
  -10.9118120     0.02439899
  -10.8717319     0.02386932
  -10.8316518     0.02368561
  -10.7915716     0.02366374
  -10.7514915     0.02343410
  -10.7114114     0.02297767
  -10.6713313     0.02253392
  -10.6312512     0.02220451
  -10.5911710     0.02195388
  -10.5510909     0.02177524
  -10.5110108     0.02156867
  -10.4709307     0.02115365
  -10.4308506     0.02059757
  -10.3907705     0.02020272
  -10.3506903     0.02006339
  -10.3106102     0.01990962
  -10.2705301     0.01949556
  -10.2304500     0.01894031
  -10.1903699     0.01848895
  -10.1502898     0.01815379
  -10.1102096     0.01783466
  -10.0701295     0.01749664
  -10.0300494     0.01705642
   -9.9899693     0.01642522
   -9.9498892     0.01573417
   -9.9098090     0.01523441
   -9.8697289     0.01493871
   -9.8296488     0.01458164
   -9.7895687     0.01401674
   -9.7494886     0.01342927
   -9.7094085     0.01302623
   -9.6693283     0.01277870
   -9.6292482     0.01255538
   -9.5891681     0.01226078
   -9.5490880     0.01185079
   -9.5090079     0.01139613
   -9.4689278     0.01106486
   -9.4288476     0.01091506
   -9.3887675     0.01077663
   -9.3486874     0.01046532
   -9.3086073     0.01004568
   -9.2685272     0.00971461
   -9.2284470     0.00952023
   -9.1883669     0.00937157
   -9.1482868     0.00918585
   -9.1082067     0.00891523
   -9.0681266     0.00857635
   -9.0280465     0.00828206
   -8.9879664     0.00812402
   -8.9478862     0.00803052
   -8.9078061     0.00784452
   -8.8677260     0.00754012
   -8.8276459     0.00724340
   -8.7875658     0.00704930
   -8.7474856     0.00693813
   -8.7074055     0.00682222
   -8.6673254     0.00661245
   -8.6272453     0.00632262
   -8.5871652     0.00608293
   -8.5470850     0.00596771
   -8.5070049     0.00588659
   -8.4669248     0.00571762
   -8.4268447     0.00546995
   -8.3867646     0.00524519
   -8.3466845     0.00510185
   -8.3066044     0.00500927
   -8.2665242     0.00488602
   -8.2264441     0.00468733
   -8.1863640     0.00447057
   -8.1462839     0.00431863
   -8.1062038     0.00422469
   -8.0661236     0.00411497
   -8.0260435     0.00394813
   -7.9859634     0.00375692
   -7.9458833     0.00360625
   -7.9058032     0.00351163
   -7.8657231     0.00341199
   -7.8256429     0.00325714
   -7.7855628     0.00308573
   -7.7454827     0.00295914
   -7.7054026     0.00286786
   -7.6653225     0.00275770
   -7.6252423     0.00261296
   -7.5851622     0.00247219
   -7.5450821     0.00236510
   -7.5050020     0.00226971
   -7.4649219     0.00215302
   -7.4248418     0.00202316
   -7.3847616     0.00191002
   -7.3446815     0.00181422
   -7.3046014     0.00171099
   -7.2645213     0.00159616
   -7.2244412     0.00148902
   -7.1843611     0.00139335
   -7.1442809     0.00129503
   -7.1042008     0.00119203
   -7.0641207     0.00109397
   -7.0240406     0.00100086
   -6.9839605     0.00090678
   -6.9438803     0.00081297
   -6.9038002     0.00072226
   -6.8637201     0.00063316
   -6.8236400     0.00054484
   -6.7835599     0.00045817
   -6.7434798     0.00037327
   -6.7033996     0.00029039
   -6.6633195     0.00021136
   -6.6232394     0.00013999
   -6.5831593     0.00008158
   -6.5430792     0.00004040
   -6.5029991     0.00001647
   -6.4629189     0.00000537
   -6.4228388     0.00000137
   -6.3827587     0.00000027
   -6.3426786     0.00000004
   -6.3025985     0.00000000
   -6.2625184     0.00000000
   -6.2224382     0.00000000
   -6.1823581     0.00000000
   -6.1422780    -0.00000000
   -6.1021979    -0.00000000
   -6.0621178    -0.00000000
   -6.0220376    -0.00000000
   -5.9819575    -0.00000000
   -5.9418774     0.00000000
   -5.9017973     0.00000000
   -5.8617172     0.00000000
   -5.8216371     0.00000000
   -5.7815569    -0.00000000
   -5.7414768    -0.00000000
   -5.7013967    -0.00000000
   -5.6613166    -0.00000000
   -5.6212365    -0.00000000
   -5.5811564    -0.00000000
   -5.5410762    -0.00000000
   -5.5009961    -0.00000000
   -5.4609160    -0.00000000
   -5.4208359    -0.00000000
   -5.3807558    -0.00000000
   -5.3406756    -0.00000000
   -5.3005955    -0.00000000
   -5.2605154    -0.00000000
   -5.2204353    -0.00000000
   -5.1803552    -0.00000000
   -5.1402751    -0.00000000
   -5.1001949    -0.00000000
   -5.0601148    -0.00000000
   -5.0200347    -0.00000000
   -4.9799546    -0.00000000
   -4.9398745    -0.00000000
   -4.8997944    -0.00000000
   -4.8597142    -0.00000000
   -4.8196341    -0.00000000
   -4.7795540    -0.00000000
   -4.7394739    -0.00000000
   -4.6993938    -0.00000000
   -4.6593137    -0.00000000
   -4.6192335    -0.00000000
   -4.5791534    -0.00000000
   -4.5390733    -0.00000000
   -4.4989932    -0.00000000
   -4.4589131    -0.00000000
   -4.4188329    -0.00000000
   -4.3787528    -0.00000000
   -4.3386727    -0.00000000
   -4.2985926    -0.00000000
   -4.2585125    -0.00000000
   -4.2184324    -0.00000000
   -4.1783522    -0.00000000
   -4.1382721    -0.00000000
   -4.0981920    -0.00000000
   -4.0581119    -0.00000000
   -4.0180318    -0.00000000
   -3.9779517    -0.00000000
   -3.9378715    -0.00000000
   -3.8977914    -0.00000000
   -3.8577113    -0.00000000
   -3.8176312    -0.00000000
   -3.7775511    -0.00000000
   -3.7374710    -0.00000000
   -3.6973908    -0.00000000
   -3.6573107    -0.00000000
   -3.6172306    -0.00000000
   -3.5771505    -0.00000000
   -3.5370704    -0.00000000
   -3.4969903    -0.00000000
   -3.4569101    -0.00000000
   -3.4168300    -0.00000000
   -3.3767499    -0.00000000
   -3.3366698    -0.00000000
   -3.2965897    -0.00000000
   -3.2565096    -0.00000000
   -3.2164294    -0.00000000
   -3.1763493    -0.00000000
   -3.1362692    -0.00000000
   -3.0961891    -0.00000000
   -3.0561090    -0.00000000
   -3.0160288    -0.00000000
   -2.9759487    -0.00000000
   -2.9358686    -0.00000000
   -2.8957885    -0.00000000
   -2.8557084    -0.00000000
   -2.8156283    -0.00000000
   -2.7755481    -0.00000000
   -2.7354680    -0.00000000
   -2.6953879    -0.00000000
   -2.6553078    -0.00000000
   -2.6152277    -0.00000000
   -2.5751476    -0.00000000
   -2.5350674    -0.00000000
   -2.4949873    -0.00000000
   -2.4549072    -0.00000000
   -2.4148271    -0.00000000
   -2.3747470    -0.00000000
   -2.3346668    -0.00000000
   -2.2945867    -0.00000000
   -2.2545066    -0.00000000
   -2.2144265    -0.00000000
   -2.1743464    -0.00000000
   -2.1342663    -0.00000000
   -2.0941861    -0.00000000
   -2.0541060    -0.00000000
   -2.0140259    -0.00000000
   -1.9739458    -0.00000000
   -1.9338657    -0.00000000
   -1.8937856     0.00000000
   -1.8537054     0.00000000
   -1.8136253     0.00000000
   -1.7735452     0.00000000
   -1.7334651     0.00000000
   -1.6933850     0.00000000
   -1.6533049     0.00000000
   -1.6132247     0.00000000
   -1.5731446     0.00000000
   -1.5330645     0.00000000
   -1.4929844     0.00000000
   -1.4529043     0.00000000
   -1.4128241     0.00000000
   -1.3727440     0.00000000
   -1.3326639     0.00000000
   -1.2925838     0.00000000
   -1.2525037     0.00000000
   -1.2124236     0.00000000
   -1.1723434     0.00000000
   -1.1322633     0.00000000
   -1.0921832     0.00000000
   -1.0521031     0.00000000
   -1.0120230     0.00000000
   -0.9719428     0.00000000
   -0.9318627     0.00000000
   -0.8917826     0.00000000
   -0.8517025     0.00000000
   -0.8116224     0.00000000
   -0.7715423     0.00000000
   -0.7314621     0.00000000
   -0.6913820     0.00000000
   -0.6513019     0.00000000
   -0.6112218     0.00000000
   -0.5711417     0.00000000
   -0.5310616     0.00000000
   -0.4909814     0.00000000
   -0.4509013     0.00000000
   -0.4108212     0.00000000
   -0.3707411     0.00000000
   -0.3306610     0.00000000
   -0.2905809     0.00000000
   -0.2505007     0.00000000
   -0.2104206     0.00000000
   -0.1703405     0.00000000
   -0.1302604     0.00000000
   -0.0901803     0.00000000
   -0.0501001     0.00000000
   -0.0100200     0.00000000
    0.0300601     0.00000000
    0.0701402     0.00000000
    0.1102203     0.00000000
    0.1503004     0.00000000
    0.1903806     0.00000000
    0.2304607     0.00000000
    0.2705408     0.00000000
    0.3106209     0.00000000
    0.3507010     0.00000000
    0.3907811     0.00000000
    0.4308613     0.00000000
    0.4709414     0.00000000
    0.5110215     0.00000000
    0.5511016     0.00000000
    0.5911817     0.00000000
    0.6312619     0.00000000
    0.6713420     0.00000000
    0.7114221     0.00000000
    0.7515022     0.00000000
    0.7915823     0.00000000
    0.8316624     0.00000000
    0.8717426     0.00000000
    0.9118227     0.00000000
    0.9519028     0.00000000
    0.9919829     0.00000000
    1.0320630     0.00000000
    1.0721431     0.00000000
    1.1122233     0.00000000
    1.1523034     0.00000000
    1.1923835     0.00000000
    1.2324636     0.00000000
    1.2725437     0.00000000
    1.3126239     0.00000000
    1.3527040     0.00000000
    1.3927841     0.00000000
    1.4328642     0.00000000
    1.4729443     0.00000000
    1.5130244     0.00000000
    1.5531046     0.00000000
    1.5931847     0.00000000
    1.6332648     0.00000000
    1.6733449     0.00000000
    1.7134250     0.00000000
    1.7535051     0.00000000
    1.7935853     0.00000000
    1.8336654     0.00000000
    1.8737455     0.00000000
    1.9138256     0.00000000
    1.9539057     0.00000000
    1.9939858     0.00000000
    2.0340660     0.00000000
    2.0741461     0.00000000
    2.1142262     0.00000000
    2.1543063     0.00000000
    2.1943864     0.00000000
    2.2344666     0.00000000
    2.2745467     0.00000000
    2.3146268     0.00000000
    2.3547069     0.00000000
    2.3947870     0.00000000
    2.4348671     0.00000000
    2.4749473     0.00000000
    2.5150274     0.00000000
    2.5551075     0.00000000
    2.5951876     0.00000000
    2.6352677     0.00000000
    2.6753478     0.00000000
    2.7154280     0.00000000
    2.7555081     0.00000000
    2.7955882     0.00000000
    2.8356683     0.00000000
    2.8757484     0.00000000
    2.9158286     0.00000000
    2.9559087     0.00000000
    2.9959888     0.00000000
    3.0360689     0.00000000
    3.0761490     0.00000000
    3.1162291     0.00000000
    3.1563093     0.00000000
    3.1963894     0.00000000
    3.2364695     0.00000000
    3.2765496     0.00000000
    3.3166297     0.00000000
    3.3567098     0.00000000
    3.3967900     0.00000000
    3.4368701     0.00000000
    3.4769502     0.00000000
    3.5170303     0.00000000
    3.5571104     0.00000000
    3.5971905     0.00000000
    3.6372707     0.00000000
    3.6773508     0.00000000
    3.7174309     0.00000007
    3.7575110     0.00000099
    3.7975911     0.00001078
    3.8376713     0.00008669
    3.8777514     0.00051708
    3.9178315     0.00230196
    3.9579116     0.00771744
    3.9979917     0.01973956
    4.0380718     0.03926409
    4.0781519     0.06244469
    4.1182321     0.08251455
    4.1583122     0.09509572
    4.1983923     0.10068295
    4.2384724     0.10224864
    4.2785525     0.10218481
    4.3186327     0.10167920
    4.3587128     0.10125761
    4.3987929     0.10085692
    4.4388730     0.10017596
    4.4789531     0.09947102
    4.5190332     0.09924675
    4.5591134     0.09921545
    4.5991935     0.09863881
    4.6392736     0.09765627
    4.6793537     0.09724158
    4.7194338     0.09773359
    4.7595139     0.09827838
    4.7995941     0.09816402
    4.8396742     0.09806055
    4.8797543     0.09922290
    4.9198344     0.10147368
    4.9599145     0.10242510
    4.9999947     0.09953205
